name,series_len,max_shape,min_shapes,avg_shape,std_shape,indx_max,indx_min,pos_max,pos_min,num_crops,num_peaks,num_zero_len,Q1,Q3,IQR,max_x_raw,min_x_raw,max_x_filtered,min_x_filtered,Q1-1.5IQR,Q3+1.5IQR,Q1-3IQR,Q3+3IQR,90thP,10thP,95thP,05thP,01thP,99thP,below_1.5IQR,above_1.5IQR,below_3IQR,above_3IQR,below_10th,above_90th,below_05th,above_95th,below_01th,above_99th
S001_128.mat,230388,284,32,88,15,2602,2166,230387,190587,2603,2603,0,81.0,95.0,14.0,195.370105631783,-236.174898055547,167.11699611589145,-120.00271121962942,60.0,116.0,39.0,137.0,104.0,73.0,113.0,62.0,48.0,134.0,98,95,5,23,259,260,117,128,24,26
S002_128.mat,230335,265,37,98,18,2348,1183,230333,117669,2349,2349,0,94.0,105.0,11.0,33.522386856883,-48.4081265132571,29.511427716392703,-32.740891085901374,77.5,121.5,61.0,138.0,119.0,74.0,127.0,60.0,47.0,148.0,292,186,120,50,231,216,97,110,23,23
S003_128.mat,230295,306,35,119,22,1931,1780,230294,211628,1932,1932,0,111.0,127.0,16.0,482.089074845396,-509.275654777422,300.0184862217039,-341.72838859043577,87.0,151.0,63.0,175.0,144.0,92.0,158.0,78.0,56.0,180.69000000000005,149,140,34,29,192,186,90,96,18,20
S004_128.mat,230371,326,34,130,36,1758,1731,230370,226191,1759,1759,0,106.0,149.0,43.0,339.225949881679,-258.657640597909,241.96766420329493,-254.44690085726376,41.5,213.5,-23.0,278.0,173.0,83.0,191.0999999999999,64.9,47.0,223.42000000000007,7,32,0,2,173,173,88,88,16,18
S005_128.mat,230308,243,27,85,18,2686,1015,230307,96378,2687,2687,0,76.0,95.0,19.0,225.916196281799,-224.446924919614,143.87220090977468,-161.4900307399365,47.5,123.5,19.0,152.0,108.0,64.0,119.0,56.0,43.0,140.13999999999987,52,95,0,10,261,260,132,129,20,27
S006_128.mat,230285,273,34,105,17,2176,1171,230284,122378,2177,2177,0,100.0,111.0,11.0,142.967453142542,-105.726862967637,89.07502696047118,-72.7098408556769,83.5,127.5,67.0,144.0,122.0,89.0,135.0,78.0,53.0,158.23999999999978,152,169,59,64,204,217,108,106,19,22
S007_128.mat,230312,278,26,76,26,2996,1864,230311,143841,2997,2997,0,55.0,96.0,41.0,281.585121352316,-226.977475107615,194.44914608832931,-164.52531815185228,-6.5,157.5,-68.0,219.0,113.0,51.0,121.0,46.0,33.0,151.0,0,17,0,1,284,281,142,147,26,28
S008_128.mat,230277,285,35,98,17,2343,2247,230276,220822,2344,2344,0,89.0,106.0,17.0,29.7656391467462,-33.1333073599693,23.838164172534917,-19.52752558215836,63.5,131.5,38.0,157.0,116.0,80.0,128.0,71.0,55.0,149.0,63,83,1,10,234,234,117,113,22,21
S009_128.mat,230293,264,35,95,16,2415,1184,230292,113095,2416,2416,0,91.0,101.0,10.0,36.6868269984342,-40.8439621585918,19.155409664123113,-22.180600233076795,76.0,116.0,61.0,131.0,111.0,77.0,121.0,66.75,46.150000000000006,139.8499999999999,207,162,87,49,231,231,121,114,25,25
S010_128.mat,230356,249,32,80,16,2857,1240,230355,98881,2858,2858,0,73.0,88.0,15.0,64.3098389041288,-60.1489032080298,38.67955591236239,-48.07681596936518,50.5,110.5,28.0,133.0,97.0,58.0,107.0,51.0,40.57,126.0,140,111,0,8,264,283,140,142,29,24
S011_128.mat,230213,318,31,117,23,1956,1227,230212,137845,1957,1957,0,104.0,132.0,28.0,38.9544882933137,-38.8749855545264,28.773200087959573,-26.8486445412863,62.0,174.0,20.0,216.0,143.0,85.0,152.19999999999982,78.0,58.0,175.0,25,21,0,1,189,194,93,98,19,19
S012_128.mat,230285,393,39,138,27,1667,1530,230284,206426,1668,1668,0,123.0,152.0,29.0,33.9910323176108,-60.5410961612139,22.804527186202897,-33.87839929668622,79.5,195.5,36.0,239.0,171.0,110.70000000000002,183.64999999999986,98.0,67.0,209.32999999999993,36,43,0,3,167,163,83,84,16,17
S013_128.mat,230209,322,33,134,25,1705,280,230208,37235,1706,1706,0,128.0,144.0,16.0,118.030969031552,-183.40071894841,72.06619861958028,-123.38219710697442,104.0,168.0,80.0,192.0,157.0,106.0,170.0,82.25,57.0,202.0,156,97,78,36,170,168,86,85,16,17
S014_128.mat,230341,236,32,79,14,2879,160,230340,12916,2880,2880,0,74.0,86.0,12.0,39.0119676863483,-35.9376486697938,23.78075639851381,-22.77354014198311,56.0,104.0,38.0,122.0,96.0,64.0,105.0,54.95000000000002,42.0,119.21000000000004,153,146,3,22,281,276,144,132,27,29
S015_128.mat,230279,289,21,105,27,2184,1936,230278,206752,2185,2185,0,91.0,120.0,29.0,271.740037916008,-255.550254084128,244.1689827055133,-157.79028395589694,47.5,163.5,4.0,207.0,141.0,73.0,152.79999999999973,59.0,42.84,184.0,40,64,0,8,204,216,104,110,22,20
S016_128.mat,230346,267,31,91,19,2505,72,230345,5371,2506,2506,0,80.0,102.0,22.0,50.9547436889316,-57.6925611614251,43.70831009900182,-36.74053938463447,47.0,135.0,14.0,168.0,110.0,66.0,121.0,57.0,44.0,145.0,35,55,0,1,247,238,118,125,22,23
S017_128.mat,230312,253,34,79,13,2883,688,230310,55038,2884,2884,0,76.0,84.0,8.0,25.3825623650511,-19.8732321042236,17.603284465873145,-15.265647651923356,64.0,96.0,52.0,108.0,92.0,62.0,102.0,55.0,42.83,119.0,302,207,102,87,265,272,143,140,29,26
S018_128.mat,230342,308,39,116,19,1977,1859,230341,216426,1978,1978,0,111.0,123.0,12.0,212.483154210455,-219.781052797115,195.0279383654975,-161.44071503727744,93.0,141.0,75.0,159.0,136.0,92.0,150.0,80.85000000000001,58.0,176.0,201,136,62,53,191,186,99,93,19,19
S019_128.mat,230332,249,25,86,18,2660,2154,230331,187069,2661,2661,0,78.0,95.0,17.0,139.428565004942,-141.175196698761,73.02149528132175,-78.98573709918087,52.5,120.5,27.0,146.0,108.0,61.0,117.0,53.0,42.0,136.0,126,98,2,12,262,257,126,125,24,25
S020_128.mat,230435,235,24,65,12,3538,1251,230434,76339,3539,3539,0,57.0,72.0,15.0,220.736865259675,-163.795578617225,127.5861673705778,-121.09830960717434,34.5,94.5,12.0,117.0,80.0,51.0,86.0,46.0,36.0,101.0,25,72,0,6,333,340,167,174,35,30
S021_128.mat,230323,270,27,90,20,2555,848,230322,74371,2556,2556,0,80.0,99.0,19.0,216.754731436751,-178.896338017718,151.93437663235122,-138.31690802780037,51.5,127.5,23.0,156.0,111.0,60.0,123.0,52.0,41.55,147.44999999999982,116,101,0,13,250,244,116,121,26,26
S022_128.mat,230312,326,51,128,22,1792,1030,230311,123942,1793,1793,0,114.0,142.0,28.0,30.5879930872971,-39.2173652590065,25.81626661252092,-26.123308053932803,72.0,184.0,30.0,226.0,158.0,104.0,165.39999999999986,94.0,76.0,191.07999999999993,11,27,0,1,163,168,85,90,17,18
S023_128.mat,230264,310,30,121,24,1899,825,230263,100179,1900,1900,0,113.0,131.0,18.0,275.491187767075,-193.032037005405,130.05541686433844,-132.2861768712573,86.0,158.0,59.0,185.0,147.0,94.0,160.0,75.0,50.0,190.0,136,103,44,21,185,189,94,92,16,18
S024_128.mat,230458,270,30,85,14,2704,2478,230457,210402,2705,2705,0,81.0,92.0,11.0,124.967406262803,-98.9318755487679,96.14984814734282,-83.26623549129098,64.5,108.5,48.0,125.0,99.0,69.0,108.0,56.20000000000002,44.0,128.0,223,133,52,36,258,258,136,133,24,27
S025_128.mat,230333,261,34,90,15,2540,1853,230331,166771,2541,2541,0,86.0,97.0,11.0,24.9913603501306,-22.8270051860454,17.857479350614458,-14.692817565476181,69.5,113.5,53.0,130.0,103.0,74.0,110.0,56.0,49.0,133.0,200,104,86,32,243,234,114,126,21,25
S026_128.mat,230371,239,27,73,15,3129,2973,230369,218821,3130,3130,0,64.0,81.0,17.0,136.142521029633,-153.300409076849,83.0841653575047,-83.06219445999336,38.5,106.5,13.0,132.0,90.0,54.0,98.0,48.0,39.29,113.0,27,69,0,4,306,303,153,144,32,30
S027_128.mat,230323,301,29,95,26,2414,953,230322,89108,2415,2415,0,67.5,115.0,47.5,65.3181310517789,-50.1708953499107,33.960818109281874,-33.05040649512182,-3.75,186.25,-75.0,257.5,127.0,61.0,135.29999999999973,55.0,44.0,153.86000000000013,0,1,0,1,235,229,111,121,19,25
S028_128.mat,230297,334,38,136,21,1680,394,230296,52100,1681,1681,0,130.0,144.0,14.0,214.611695542291,-199.009047449642,154.62820828872898,-144.4277625497748,109.0,165.0,88.0,186.0,159.0,114.0,172.0,100.0,79.0,200.0,124,119,33,40,164,160,77,82,16,16
S029_128.mat,230289,227,29,100,24,2294,1670,230287,166879,2295,2295,0,88.0,113.0,25.0,627.595770147794,-581.177547400369,296.7893634591559,-366.85166579456677,50.5,150.5,13.0,188.0,124.0,60.0,137.29999999999973,56.0,43.0,163.05999999999995,70,55,0,1,217,214,105,115,20,23
S030_128.mat,230359,289,30,87,20,2624,1747,230358,150571,2625,2625,0,76.0,99.0,23.0,280.329374234776,-391.249091627796,216.7401832390371,-309.5941164220305,41.5,133.5,7.0,168.0,111.0,62.0,122.0,55.20000000000002,42.0,141.51999999999953,21,56,0,3,253,257,132,120,21,27
S031_128.mat,230309,283,38,103,18,2227,1788,230308,184688,2228,2228,0,97.0,110.0,13.0,252.418536487305,-338.393266576863,196.41270725283272,-187.31388451996264,77.5,129.5,58.0,149.0,124.0,82.0,133.6500000000001,72.35000000000001,52.0,157.73000000000002,174,154,40,34,221,212,112,112,22,23
S032_128.mat,230299,307,24,106,25,2157,603,230298,61219,2158,2158,0,102.0,118.0,16.0,24.5069678798895,-30.0428582888279,19.795628469794135,-20.404992614553063,78.0,142.0,54.0,166.0,129.0,64.0,140.0,50.0,39.57,161.42999999999984,297,96,137,17,212,214,101,104,22,22
S033_128.mat,230443,216,16,54,10,4255,2512,230442,133411,4256,4256,0,48.75,59.0,10.25,42.1499716887824,-48.5662604821342,30.802803310208724,-32.191796785837795,33.375,74.375,18.0,89.75,64.0,41.0,70.0,33.0,25.0,84.0,219,114,7,12,384,405,189,190,39,35
S034_128.mat,230158,326,46,125,26,1838,1621,230157,202357,1839,1839,0,113.0,141.0,28.0,128.21246132512,-100.710883309743,87.58287252251412,-76.35483318860445,71.0,183.0,29.0,225.0,152.20000000000005,96.0,170.0,76.0,58.379999999999995,199.6199999999999,70,57,0,1,183,184,89,87,19,19
S035_128.mat,230162,342,32,129,19,1770,904,230161,115486,1771,1771,0,123.0,137.0,14.0,38.6287067508203,-41.519805034205,28.37184170387114,-23.181394284332846,102.0,158.0,81.0,179.0,147.0,112.0,159.0,100.0,68.7,192.29999999999995,98,91,38,27,172,169,89,87,18,18
S036_128.mat,230334,237,26,73,15,3120,2429,230333,178169,3121,3121,0,65.0,82.0,17.0,60.3933051783111,-78.5235383117596,41.011874683689854,-61.9071016549677,39.5,107.5,14.0,133.0,91.0,53.0,99.0,47.0,39.0,116.0,37,85,0,5,305,304,126,155,28,28
S037_128.mat,230420,1603,45,125,38,1640,685,204288,83366,1835,1835,0,118.0,131.0,13.0,13.7847430708267,-17.3472626412129,10.194816102419885,-10.071089873931262,98.5,150.5,79.0,170.0,142.0,106.0,151.0,100.0,76.68,177.66000000000008,85,95,20,30,181,180,90,89,19,19
S038_128.mat,230355,242,35,80,10,2849,685,230354,56111,2850,2850,0,78.0,83.0,5.0,40.6308342053323,-34.3880647401063,31.03643821601431,-26.08637824556463,70.5,90.5,63.0,98.0,89.0,72.0,97.54999999999973,62.0,48.0,114.0,252,253,147,133,274,275,139,143,28,25
S039_128.mat,230235,316,30,107,18,2137,885,230233,92865,2138,2138,0,99.0,117.0,18.0,168.062286203,-167.414698067466,78.55261124582495,-117.08737057391414,72.0,144.0,45.0,171.0,127.0,87.0,137.0,76.85000000000001,56.370000000000005,158.0,79,59,4,9,210,211,107,100,22,21
S040_128.mat,230315,271,22,72,25,3158,1730,230314,133966,3159,3159,0,53.0,96.0,43.0,11.9023928246983,-11.9375151933749,9.224007687797462,-9.255888030091937,-11.5,160.5,-76.0,225.0,109.0,50.0,118.0,46.0,38.0,139.0,0,6,0,1,275,302,141,153,29,30
S041_128.mat,230426,249,36,82,12,2794,803,230425,65382,2795,2795,0,81.0,86.0,5.0,14.6864651986517,-13.4803277310718,10.98740521431442,-14.016429377031251,73.5,93.5,66.0,101.0,93.0,71.0,98.0,53.0,45.0,117.05999999999995,312,232,238,107,267,232,100,136,21,28
S042_128.mat,230261,264,32,86,19,2657,2354,230259,203699,2658,2658,0,78.0,95.0,17.0,284.231417760909,-262.161817681247,236.0707630307873,-174.69945061284398,52.5,120.5,27.0,146.0,109.0,59.0,119.0,52.0,41.0,137.0,139,114,0,6,254,263,125,125,24,24
S043_128.mat,230317,293,23,86,19,2674,1764,230316,163261,2675,2675,0,72.0,101.0,29.0,70.7656923464925,-80.7897548960833,42.94960016262145,-69.88811483141802,28.5,144.5,-15.0,188.0,111.0,62.0,117.0,57.0,46.0,139.0,2,20,0,1,238,249,129,130,23,25
S044_128.mat,230206,303,34,111,20,2064,1638,230205,182850,2065,2065,0,105.0,119.0,14.0,14.790865093645,-14.902318775454,8.00759748154815,-9.535513963213628,84.0,140.0,63.0,161.0,132.0,86.0,147.0,77.0,55.0,167.0,164,134,58,39,196,206,101,99,18,20
S045_128.mat,230379,273,19,91,20,2524,2275,230378,206359,2525,2525,0,78.0,104.0,26.0,41.0536378108517,-63.1963084057702,42.399012741474735,-43.4336110255248,39.0,143.0,0.0,182.0,116.0,65.0,125.0,57.0,45.0,146.75999999999976,9,33,0,1,243,243,117,123,25,26
S046_128.mat,230374,305,39,103,14,2219,716,230373,76452,2220,2220,0,96.0,110.0,14.0,27.074564423093,-24.7023406783833,15.484565341058245,-19.34513904192977,75.0,131.0,54.0,152.0,119.0,89.0,127.04999999999973,81.0,64.0,146.80999999999995,59,76,9,13,221,209,110,111,22,23
S047_128.mat,230345,355,37,120,29,1907,439,230344,55082,1908,1908,0,104.0,135.0,31.0,50.4776381177033,-57.8774813126502,30.304845843153156,-47.959140292318374,57.5,181.5,11.0,228.0,157.0,86.0,170.64999999999986,74.0,51.0,201.86000000000013,35,53,0,1,183,185,91,96,19,20
S048_128.mat,230270,251,26,81,18,2839,710,230269,57378,2840,2840,0,70.0,91.0,21.0,266.253146900901,-282.901995144596,156.35186799223857,-187.1949600437797,38.5,122.5,7.0,154.0,103.0,58.0,112.0,50.95000000000002,40.0,132.0,22,66,0,3,281,264,142,136,28,28
S049_128.mat,230288,273,32,106,25,2157,1397,230287,150264,2158,2158,0,92.0,122.0,30.0,33.3616277393571,-26.575181324674,22.82594931599329,-20.593228802730028,47.0,167.0,2.0,212.0,133.0,76.0,147.0,65.0,47.57,170.42999999999984,21,29,0,5,210,208,107,105,22,22
S050_128.mat,230334,270,29,96,15,2382,838,230333,83591,2383,2383,0,90.0,104.0,14.0,45.4450992074019,-40.5735918126758,26.76622476834603,-28.859345511179946,69.0,125.0,48.0,146.0,113.0,81.0,121.0,71.0,46.82,141.0,110,73,28,16,225,226,117,119,24,23
S051_128.mat,230289,236,21,86,25,2662,1963,230225,171939,2663,2663,0,68.0,104.0,36.0,216.556099991639,-282.464725473922,180.21133204224148,-134.52438417496052,14.0,158.0,-40.0,212.0,117.0,52.0,127.0,47.0,37.620000000000005,152.3800000000001,0,16,0,1,243,251,132,133,27,27
S052_128.mat,230401,265,28,89,18,2580,1383,230400,122010,2581,2581,0,83.0,96.0,13.0,290.141890524717,-263.610974197009,172.98105622394468,-153.39654468043338,63.5,115.5,44.0,135.0,109.0,63.0,121.0,54.0,43.0,138.19999999999982,261,184,28,38,249,253,128,124,24,26
S053_128.mat,230311,286,35,111,24,2058,409,230310,42586,2059,2059,0,96.0,126.0,30.0,28.9890422814217,-23.444136992776,19.70121186701546,-17.070094441944786,51.0,171.0,6.0,216.0,142.0,84.0,152.0,75.0,52.0,182.42000000000007,14,32,0,2,192,197,96,100,20,21
S054_128.mat,230292,323,43,134,26,1705,1537,230291,208010,1706,1706,0,125.0,147.0,22.0,125.574714800682,-160.882831417124,104.77154708201698,-108.56098979572548,92.0,180.0,59.0,213.0,165.0,100.0,179.0,87.0,71.0,211.0,122,78,6,16,169,166,82,80,16,17
S055_128.mat,230361,331,36,137,20,1677,1341,230360,183672,1678,1678,0,131.0,144.0,13.0,217.721571140662,-230.38922231526,175.16029925862847,-166.94483763439564,111.5,163.5,92.0,183.0,156.29999999999995,115.0,171.0,99.0,76.31,198.69000000000005,141,117,54,37,166,168,75,81,17,17
S056_128.mat,230270,321,40,123,24,1858,756,230269,89661,1859,1859,0,115.0,132.0,17.0,278.648462413994,-335.001408889145,198.20425163672735,-231.96104925098484,89.5,157.5,64.0,183.0,148.0,99.0,166.0,82.0,52.0,198.0,131,129,38,41,185,182,91,90,17,18
S057_128.mat,230382,305,34,113,25,2034,80,230381,9107,2035,2035,0,101.0,125.0,24.0,298.823877904224,-272.459208350864,178.59144345964404,-179.88627417153384,65.0,161.0,29.0,197.0,141.0,80.0,156.0,70.0,49.0,184.32000000000016,72,80,0,8,197,196,100,100,20,21
S058_128.mat,230400,224,35,66,8,3483,1352,230399,88976,3484,3484,0,62.0,69.0,7.0,17.0470771862086,-15.3932334063749,11.071056750612522,-10.303868179337709,51.5,79.5,41.0,90.0,76.0,56.0,80.0,52.0,42.0,90.0,166,198,23,33,298,315,166,164,33,33
S059_128.mat,230356,281,35,102,17,2236,1086,230355,118873,2237,2237,0,93.0,113.0,20.0,233.910772691214,-231.7991693876,130.8501765192126,-133.12133618137472,63.0,143.0,33.0,173.0,121.0,83.0,131.0,75.0,57.0,152.91999999999962,44,35,0,5,210,222,109,108,22,23
S060_128.mat,230402,338,43,118,22,1938,790,230400,82709,1939,1939,0,105.0,132.0,27.0,38.2677648085573,-47.4225563863589,23.405851881977956,-40.62654844331398,64.5,172.5,24.0,213.0,143.0,97.0,154.0,86.0,59.379999999999995,182.23999999999978,35,36,0,3,185,181,92,96,20,20
S061_128.mat,230090,336,30,122,32,1879,937,230089,103677,1880,1880,0,100.0,143.0,43.0,244.504194396822,-290.432418523929,164.66292675413945,-236.19260648545634,35.5,207.5,-29.0,272.0,162.0,86.0,176.04999999999995,74.95,53.0,211.21000000000004,1,21,0,2,180,186,94,94,18,19
S062_128.mat,230373,251,30,81,18,2830,1733,230371,146269,2831,2831,0,71.0,91.0,20.0,145.063061288172,-121.936422994889,113.90265411127513,-104.44498414696537,41.0,121.0,11.0,151.0,102.0,58.0,112.0,52.0,40.0,131.0,37,67,0,2,277,270,134,128,28,28
S079_250.mat,450000,257,64,140,24,3179,1073,446090,150850,3207,3207,0,131.0,150.0,19.0,263.292060210668,-325.126658107846,177.88691154115386,-223.98598155235737,102.5,178.5,74.0,207.0,167.0,110.0,181.0,97.0,77.0,213.0,214,190,17,50,310,319,153,160,30,31
S080_250.mat,450000,349,79,207,28,1452,298,297373,58321,2168,2168,0,196.0,219.0,23.0,28.6636902519241,-29.6923562297004,20.073939889108843,-22.347657745766455,161.5,253.5,127.0,288.0,234.0,179.0,251.6500000000001,162.0,116.0,293.65999999999985,104,105,42,29,206,216,104,109,20,22
S081_250.mat,450000,378,90,205,25,431,742,91447,156883,2191,2191,0,191.0,218.0,27.0,32.5381571170275,-26.0582724318451,22.783047847202234,-18.182761089594916,150.5,258.5,110.0,299.0,231.0,178.0,243.0,168.0,133.8,287.0999999999999,47,68,10,13,211,217,104,106,22,22
S082_250.mat,450000,369,65,194,46,2120,521,406508,103827,2314,2314,0,166.0,221.0,55.0,150.783553160306,-239.696214166456,108.97408652161285,-153.47716863500042,83.5,303.5,1.0,386.0,250.0,135.0,276.3499999999999,112.0,86.0,318.8699999999999,17,39,0,0,230,229,111,116,23,24
S083_250.mat,450000,341,65,187,33,446,900,81084,171846,2395,2395,0,168.0,207.0,39.0,17.4486922629015,-17.351318066854,13.158262474524019,-11.564081929186383,109.5,265.5,51.0,324.0,221.0,149.0,240.29999999999973,132.7,94.0,277.1199999999999,52,41,0,1,234,236,120,120,23,24
S084_250.mat,450000,401,72,217,47,1463,1811,308921,389358,2073,2073,0,189.0,237.0,48.0,342.163096066071,-368.501646993993,265.21318057158913,-250.64048965739886,117.0,309.0,45.0,381.0,273.0,159.0,301.0,132.0,98.0,353.0,64,89,0,5,201,207,101,102,19,20
S085_250.mat,450000,1162,85,222,47,1355,313,289579,61709,2025,2025,0,196.0,242.0,46.0,34.6106464329561,-38.5403858485909,25.08934422387358,-32.78140867051306,127.0,311.0,58.0,380.0,259.0,174.0,282.0,162.2,123.48,324.0,23,34,0,3,194,199,102,99,21,19
S086_250.mat,450000,479,68,207,47,0,1009,479,220252,2166,2166,0,179.0,237.0,58.0,181.699267376959,-225.139558638499,194.90841559467884,-196.41925134790452,92.0,324.0,5.0,411.0,273.0,154.0,287.0,135.0,100.0,338.6999999999998,10,41,0,2,215,205,105,106,21,22
S087_250.mat,450000,362,63,190,32,209,1300,41607,246023,2368,2368,0,170.0,208.25,38.25,24.9989434172176,-28.5323700980201,19.673403965337403,-21.1792712054295,112.625,265.625,55.25,323.0,228.0,156.0,241.6500000000001,135.0,99.67,274.3299999999999,51,39,0,3,232,232,118,119,24,24
S088_250.mat,450000,282,58,152,27,1382,1205,211016,184094,2957,2957,0,142.0,162.0,20.0,459.441418214599,-335.495523721958,340.4277734961873,-246.92982964973075,112.0,192.0,82.0,222.0,182.0,119.0,202.19999999999982,99.0,79.0,236.0,236,204,41,57,293,284,144,148,29,29
S089_250.mat,450000,393,76,205,35,0,452,393,96126,2192,2192,0,184.0,226.0,42.0,17.6298852799343,-17.9912033979299,11.795637884152768,-11.265587302895907,121.0,289.0,58.0,352.0,249.0,169.0,265.0,155.0,117.73,294.09000000000015,23,34,0,5,219,215,106,106,22,22
S090_250.mat,450000,460,72,227,52,1030,499,211005,100156,1982,1982,0,197.0,263.0,66.0,194.997945971375,-199.524783581721,141.01393615020015,-164.9523722953766,98.0,362.0,-1.0,461.0,285.0,153.0,308.0,140.0,106.42999999999999,356.0,13,18,0,0,196,197,96,98,20,19
S091_250.mat,450000,423,64,245,47,0,1121,423,273439,1831,1831,0,235.0,263.0,28.0,162.17402648049,-141.714875581934,115.79573627207752,-117.81219835984804,193.0,305.0,151.0,347.0,293.0,180.0,320.5,152.0,110.6,377.70000000000005,217,134,89,48,181,182,91,92,19,19
S092_250.mat,450000,413,73,239,35,1807,718,432582,173896,1878,1878,0,223.0,256.0,33.0,29.7140807786285,-33.7126317085806,21.644058918572323,-28.247289922369717,173.5,305.5,124.0,355.0,280.0,206.0,298.0,182.0,133.54,345.23,70,77,13,12,183,179,92,91,19,19
S093_250.mat,450000,330,73,183,26,0,1459,330,272518,2448,2448,0,174.0,193.0,19.0,33.8564539647333,-42.2506648810502,23.050116155915152,-29.737705137987422,145.5,221.5,117.0,250.0,209.0,158.70000000000002,229.0,142.0,99.47,273.5300000000002,134,156,56,56,245,242,122,119,25,25
S094_250.mat,450000,325,60,162,29,901,2210,147614,362453,2761,2761,0,150.0,173.0,23.0,145.775741107732,-115.026132950046,125.39445979303397,-102.4224279722916,115.5,207.5,81.0,242.0,193.0,129.0,215.0,110.0,87.0,254.0,175,185,13,52,269,272,134,136,26,26
S095_250.mat,450000,344,67,176,31,0,716,344,135915,2556,2556,0,158.0,191.0,33.0,355.435669655719,-259.977161256207,261.3039257321422,-181.40101251830166,108.5,240.5,59.0,290.0,209.0,143.0,233.0,121.0,92.0,263.4499999999998,76,92,0,11,251,252,126,127,24,26
S096_250.mat,450000,387,79,212,41,1888,1159,398342,227720,2114,2114,0,184.0,235.0,51.0,286.376456480258,-206.503243409837,233.05989179719106,-174.09628037976827,107.5,311.5,31.0,388.0,254.0,161.0,283.0,150.65,112.0,344.0,20,53,0,0,207,208,106,103,21,21
S097_250.mat,450000,352,81,215,31,893,1664,188654,361737,2088,2088,0,197.0,233.0,36.0,13.5733161795853,-15.4304884688595,8.58557500025093,-7.888444762706875,143.0,287.0,89.0,341.0,255.0,184.0,269.0,170.0,122.87,297.3900000000003,33,38,2,2,199,203,100,102,21,21
S098_250.mat,450000,479,82,241,41,1743,633,417994,143310,1867,1867,0,220.0,263.0,43.0,142.041567134178,-154.322006012266,114.89632073134412,-114.23900453481161,155.5,327.5,91.0,392.0,283.0,193.60000000000002,307.0,170.3,122.66,362.3399999999999,55,54,2,6,187,186,94,91,19,19
S099_250.mat,450000,373,63,190,32,0,792,373,152758,2358,2358,0,177.0,208.0,31.0,35.6135060044551,-43.6242762626726,26.080828085125866,-28.126016664408915,130.5,254.5,84.0,301.0,225.0,157.0,244.1500000000001,134.85000000000002,99.0,281.0,103,80,7,11,235,227,118,118,21,22
S100_250.mat,450000,339,61,179,33,0,63,339,12632,2505,2505,0,161.0,194.0,33.0,61.7942711383433,-60.3356225420841,29.648709311851697,-40.66416698007535,111.5,243.5,62.0,293.0,221.0,145.0,240.0,122.0,90.0,276.96000000000004,94,111,1,11,242,247,122,120,24,26
S101_250.mat,450000,368,64,186,43,1909,1735,356417,325793,2412,2412,0,157.0,214.0,57.0,219.758255519954,-248.274792948582,176.65235693445516,-208.49923812457223,71.5,299.5,-14.0,385.0,236.0,134.0,259.0,119.0,87.0,305.8899999999999,4,36,0,0,234,240,117,120,24,25
S102_250.mat,450000,309,49,148,26,1948,2903,289436,430069,3037,3037,0,137.0,161.0,24.0,438.747285434494,-376.702379097499,391.0545858502311,-371.85725814627585,101.0,197.0,65.0,233.0,177.0,115.0,191.0,101.0,77.0,224.0,145,116,9,19,284,301,145,146,29,30
S103_250.mat,450000,307,68,175,30,192,2167,36671,387735,2565,2565,0,165.0,186.0,21.0,192.197844076788,-229.499471030123,139.743217160985,-188.83310740538653,133.5,217.5,102.0,249.0,205.5999999999999,142.0,227.0,117.0,89.0,269.3600000000001,208,180,69,60,250,257,128,127,25,26
S104_250.mat,450000,368,58,154,37,1419,186,202267,29173,2914,2914,0,129.0,175.0,46.0,155.01501974023,-186.249765869411,139.31413966827552,-183.17601019865174,60.0,244.0,-9.0,313.0,200.0,114.0,224.0,98.0,79.0,259.0,1,72,0,3,284,289,138,144,28,28
S105_250.mat,450000,442,69,186,53,665,916,131666,181327,2409,2409,0,146.0,228.0,82.0,85.6927418740658,-55.9888592524477,46.69570082495461,-55.08296337910698,23.0,351.0,-100.0,474.0,258.0,129.0,277.0,111.4,84.08,336.0,0,15,0,0,238,236,121,116,25,24
S106_250.mat,450000,378,67,185,42,216,272,41199,53340,2428,2428,0,163.0,206.0,43.0,188.522395675746,-294.01801680123,136.1223780982935,-166.37366898020514,98.5,270.5,34.0,335.0,236.30000000000018,136.0,259.0,112.35000000000001,84.27,305.73,62,93,0,10,241,243,122,117,25,25
S107_250.mat,450000,364304,79,22,143,85,566,380375,461981,591,591,2,159.0,185.0,26.0,59.9706500739043,-63.01225507163,35.619855080087255,-39.573698563340336,120.0,224.0,81.0,263.0,201.0,149.0,219.5,129.0,87.8,251.10000000000025,26,24,4,5,58,58,29,30,6,6
S108_250.mat,450000,436,73,243,38,564,1149,141763,291541,1847,1847,0,223.5,263.0,39.5,46.1194089196427,-50.7852800144658,34.7504743922108,-32.25077457475228,164.25,322.25,105.0,381.5,283.0,196.0,305.6999999999998,180.0,139.0,358.53999999999996,56,59,1,7,184,184,90,93,18,19
S109_250.mat,450000,544,85,29,40,1164,228,326050,63887,1577,1577,0,266.0,304.0,38.0,158.96371792952,-187.131466839757,160.04012207180642,-148.8228036691632,209.0,361.0,152.0,418.0,326.0,243.0,348.39999999999964,221.0,167.0,401.48,54,59,12,10,157,157,77,79,15,16
S110_250.mat,450000,267,55,128,29,2924,226,373946,25875,3509,3509,0,111.0,147.0,36.0,152.973543288019,-184.919564108935,107.65234107969013,-135.19141182973547,57.0,201.0,3.0,255.0,162.0,93.0,182.0,82.0,66.08,218.0,1,83,0,2,338,344,171,172,36,34
S111_250.mat,450000,418,81,232,43,1138,1314,258023,300350,1938,1938,0,212.0,249.0,37.0,174.397122252829,-188.625300853436,163.19327592271412,-189.68149238800163,156.5,304.5,101.0,360.0,284.0,176.70000000000002,313.0,152.0,115.37,349.25999999999976,112,122,7,11,194,192,95,94,20,20
S112_250.mat,450000,378,75,198,39,0,1648,378,331420,2262,2262,0,173.0,222.0,49.0,53.3227973013956,-46.1831000226259,45.50996466051254,-33.93398737313796,99.5,295.5,26.0,369.0,242.0,149.0,264.0,134.05,108.0,310.77999999999975,13,37,0,3,226,224,114,111,22,23
S113_250.mat,450000,324,69,174,33,2288,937,392732,162140,2585,2585,0,158.0,188.0,30.0,48.316644313783,-42.2122378865095,33.06777897866302,-34.77103985037753,113.0,233.0,68.0,278.0,213.0,140.40000000000003,232.0,118.0,86.0,273.15999999999985,111,123,0,21,259,253,128,128,21,26
S114_250.mat,450000,437,77,243,43,337,68,78325,16645,1851,1851,0,220.0,267.0,47.0,92.5283467953279,-113.901773721001,80.05718116151421,-99.32968069490938,149.5,337.5,79.0,408.0,288.0,188.0,312.0,168.5,118.5,354.5,48,41,1,3,184,180,93,90,19,19
S115_250.mat,450000,351,76,195,31,1617,1159,313763,217374,2298,2298,0,178.0,215.0,37.0,51.4142940688412,-43.1985010869179,36.99405875631861,-38.63682145707062,122.5,270.5,67.0,326.0,233.0,164.0,245.0,153.85000000000002,110.97,282.0300000000002,38,39,0,6,221,229,115,110,23,23
S116_250.mat,450000,13705,74,240,160,1540,211,370601,46371,1870,1870,0,208.0,241.0,33.0,38.9875143671387,-35.2451631772935,26.573753361807114,-32.20701936808245,158.5,290.5,109.0,340.0,258.0,187.0,284.54999999999995,165.45,123.0,342.30999999999995,78,78,11,20,186,186,94,94,17,19
S117_250.mat,450000,425,65,202,38,0,1060,425,221056,2218,2218,0,182.0,224.0,42.0,14.7473857054773,-15.8006140543491,8.446485545432031,-10.914093096097531,119.0,287.0,56.0,350.0,249.0,166.0,263.0,132.85000000000002,97.17,299.8299999999999,79,45,0,3,221,217,111,107,23,23
S118_250.mat,450000,375,70,186,39,289,71,59618,15041,2413,2413,0,159.0,208.0,49.0,47.6379133945871,-50.8640359289681,39.160683237128495,-42.212488040630234,85.5,281.5,12.0,355.0,229.80000000000018,144.0,254.0,123.0,92.0,303.6400000000003,14,51,0,3,236,242,120,120,23,25
S119_250.mat,450000,351,65,175,40,672,600,106691,93764,2566,2566,0,148.0,200.0,52.0,149.778554595319,-173.466111938214,116.8750142555931,-125.63896375010985,70.0,278.0,-8.0,356.0,221.0,126.0,239.0,105.0,78.0,287.3499999999999,5,38,0,0,252,250,124,128,23,26
S121_250.mat,450000,365,66,164,35,1130,616,181122,99825,2729,2729,0,146.0,183.0,37.0,157.935465928441,-184.33927504683,137.8232197866554,-130.29407221930916,90.5,238.5,35.0,294.0,208.0,120.0,227.0,102.0,82.0,259.7199999999998,68,83,0,8,266,271,132,134,27,28
